517
516
517
517
519
518
520
528
532
531
532
534
534
534
535
535
535
536
539
544
550
654
655
656
658
675
667
662
658
637
599
533
532
524
521
523
518
521
524
521
521
521
519
514
511
513
513
511
513
516
515
515
519
569
649
652
654
656
657
658
659
659
660
660
647
602
528
524
522
520
518
519
519
518
517
516
515
514
512
510
510
511
515
513
513
514
516
524
590
651
653
654
655
657
658
658
657
656
655
628
561
524
521
520
517
520
523
522
529
524
524
522
523
523
523
522
523
523
523
524
524
524
561
654
655
656
656
656
656
655
655
655
654
647
599
523
521
520
520
520
520
520
521
520
521
520
521
521
521
522
523
523
523
524
524
524
540
631
656
656
657
657
657
657
657
657
656
649
609
526
522
520
520
520
520
519
520
520
520
520
520
520
520
521
524
526
528
529
530
528
555
660
664
666
670
667
669
663
663
669
676
650
578
527
513
518
531
540
529
514
517
516
516
520
521
520
522
521
521
521
521
521
521
531
621
653
653
654
654
654
654
654
653
651
643
582
520
522
526
528
532
534
528
521
518
523
523
517
517
519
520
519
519
518
520
519
603
658
661
670
694
719
669
656
659
655
631
560
523
521
517
516
517
516
518
518
517
516
516
515
513
513
514
513
514
515
546
648
651
653
656
657
658
658
659
655
623
541
524
521
520
519
519
517
516
516
515
514
515
514
515
514
515
515
515
552
647
652
655
657
659
660
660
660
654
599
527
525
523
521
520
519
518
517
516
515
515
515
515
515
517
516
517
541
650
653
655
657
659
660
660
661
655
602
527
524
522
521
521
521
519
516
502
502
502
502
503
500
502
504
503
516
608
640
644
648
652
653
656
657
656
638
583
524
520
517
520
544
561
578
583
557
544
527
503
501
501
502
503
506
555
641
645
649
652
654
657
657
659
650
602
525
522
519
516
520
531
534
545
541
527
513
505
504
504
504
506
507
515
590
646
650
654
657
659
661
662
663
653
591
527
523
520
519
533
529
543
513
528
514
507
506
505
505
506
507
508
527
643
647
651
653
662
658
662
677
654
611
525
520
534
532
529
528
527
526
526
525
525
524
524
523
522
523
523
524
562
657
658
660
662
663
663
663
664
659
617
530
528
526
525
524
523
522
522
521
521
520
520
520
520
520
520
521
521
545
653
655
657
659
660
660
661
661
660
635
556
526
524
523
522
522
521
520
519
519
519
518
518
518
518
518
519
519
545
652
654
656
658
659
659
659
660
656
612
526
524
522
522
521
520
520
519
519
518
518
518
518
518
518
518
518
519
587
653
655
657
659
659
661
661
664
645
578
527
525
521
520
522
524
519
520
518
518
519
519
520
518
518
519
519
533
623
652
655
657
658
660
661
661
661
632
556
527
524
523
522
521
520
519
519
519
518
518
518
518
518
518
518
518
524
606
652
654
656
657
658
659
660
659
648
590
527
525
523
522
522
520
519
518
518
517
517
517
517
517
517
518
518
518
557
651
653
656
657
658
659
659
659
656
624
540
525
525
524
521
520
520
518
517
517
515
515
515
516
518
517
517
518
524
612
652
654
656
639
640
659
642
641
633
574
508
506
505
505
505
505
522
522
522
522
521
522
521
518
517
516
519
523
558
654
656
658
659
659
659
659
659
658
633
554
524
522
521
520
520
520
519
519
519
519
518
519
519
519
519
519
520
520
568
652
654
656
657
658
658
658
658
656
629
548
523
521
520
519
519
518
518
519
519
520
521
519
518
519
520
521
520
518
541
646
649
650
652
654
656
660
662
663
653
604
530
528
524
520
518
517
516
515
515
514
513
513
513
512
512
513
512
512
513
532
619
650
653
655
656
657
659
659
661
658
635
571
527
525
523
521
520
519
519
516
516
514
514
513
513
513
512
513
513
513
514
521
587
648
650
654
656
658
659
660
661
660
652
604
528
526
523
521
520
519
518
517
516
515
514
513
513
513
512
512
513
513
513
514
525
595
649
652
654
656
658
659
660
661
660
657
616
543
526
524
522
520
520
519
518
517
516
515
514
514
513
513
513
513
514
514
514
515
535
620
650
652
654
656
658
659
660
660
660
657
620
552
526
524
522
514
504
503
502
501
517
500
499
499
499
499
499
503
515
515
515
516
517
554
650
652
656
657
659
660
661
662
645
649
645
613
543
529
526
524
523
522
521
520
519
518
517
515
515
515
515
514
514
514
514
514
515
515
542
635
650
653
655
657
659
660
661
661
662
658
637
581
528
526
523
521
520
519
519
518
518
517
516
515
514
514
514
513
513
513
513
513
514
515
538
619
650
652
655
657
658
659
660
660
661
661
653
613
546
526
525
523
522
520
520
519
518
517
516
515
515
514
513
513
513
513
513
513
514
514
514
521
566
648
650
653
655
656
658
659
660
660
661
660
649
608
541
526
524
523
521
520
520
518
518
517
516
515
515
514
513
513
513
513
513
513
513
513
514
514
540
619
649
651
654
655
657
658
659
660
660
661
659
641
593
528
526
524
522
521
520
519
518
517
517
516
515
514
514
513
513
513
513
512
513
513
513
513
514
540
621
649
651
653
655
657
658
659
659
660
660
657
636
586
527
525
524
522
521
520
519
519
517
516
515
515
514
514
514
513
513
512
513
513
513
514
514
516
551
648
650
652
654
656
657
658
659
660
661
661
657
626
571
528
525
523
521
519
519
518
517
516
515
514
497
498
514
513
513
513
513
513
514
515
516
516
524
574
649
651
654
656
658
659
660
661
662
662
662
658
627
572
528
527
524
522
520
520
519
518
517
516
515
515
514
514
513
513
513
514
513
513
514
514
515
517
551
645
651
653
655
657
658
657
661
661
662
662
660
642
597
529
527
525
523
522
521
520
519
518
517
516
515
515
514
514
514
514
513
498
496
498
500
511
499
525
598
635
638
641
643
645
646
648
649
667
667
666
651
610
544
532
529
527
525
523
523
523
521
520
601
502
501
501
518
517
516
516
516
516
516
516
516
517
534
600
651
653
656
657
659
661
662
663
663
664
662
645
601
532
529
526
525
523
522
522
521
519
515
500
500
500
515
516
515
515
515
514
514
515
514
500
510
554
634
637
640
642
645
647
648
650
651
652
668
653
608
539
533
530
528
526
525
524
523
522
521
520
519
518
517
517
516
516
516
516
516
517
517
517
536
609
652
654
657
659
660
661
662
663
664
663
660
633
577
529
527
526
524
523
522
521
520
519
518
517
516
515
515
514
498
498
504
515
508
499
499
517
539
615
652
654
656
647
652
646
646
648
649
650
649
629
580
518
533
530
528
526
523
524
523
522
521
520
519
518
517
517
516
516
516
516
516
516
517
517
529
586
651
654
656
658
659
661
662
663
664
664
662
646
603
534
530
527
525
523
523
522
520
519
518
517
516
516
516
515
514
514
514
514
514
514
514
515
526
585
650
652
654
657
658
660
661
662
663
662
660
640
586
529
527
525
506
523
522
521
519
518
517
516
515
514
514
514
514
513
513
513
513
515
514
519
564
649
652
654
656
658
659
660
661
662
662
660
642
591
529
526
524
522
520
520
519
518
517
516
515
514
514
513
513
513
512
512
513
513
513
513
521
572
648
651
654
656
656
659
660
661
662
662
660
639
584
528
526
524
522
521
520
519
518
517
516
515
513
514
513
513
512
513
513
513
513
513
514
526
586
649
651
655
659
660
662
663
664
664
621
638
616
577
532
528
524
523
522
609
612
614
617
617
614
524
593
597
608
612
615
613
608
604
604
607
627
632
635
637
639
641
643
644
645
644
645
641
633
629
624
620
616
617
619
622
622
612
614
619
541
493
491
491
491
490
492
491
491
492
497
540
614
630
633
636
638
640
642
643
645
643
627
584
522
512
510
508
507
507
507
505
505
506
502
501
500
499
499
499
499
499
499
499
502
537
620
636
639
642
642
646
647
649
648
648
630
583
518
517
514
513
513
512
511
510
511
508
509
509
505
504
503
503
503
503
503
503
517
569
638
642
645
647
649
651
652
653
654
645
608
549
524
518
516
515
515
514
513
513
514
510
508
509
507
506
506
506
505
506
506
513
566
640
644
647
649
651
653
654
655
656
646
612
558
522
520
518
517
516
516
515
516
513
511
510
509
507
508
507
507
507
507
511
556
642
645
648
651
653
654
656
657
658
641
594
531
522
520
518
518
517
516
514
516
512
513
510
509
508
508
508
507
508
508
534
633
645
648
651
653
655
656
657
658
643
598
528
522
520
519
518
517
517
516
515
513
511
512
511
510
508
508
510
508
516
569
643
647
647
652
655
656
656
657
654
616
551
524
522
520
519
518
517
516
515
515
512
511
510
509
510
509
509
509
521
581
644
648
651
654
655
658
658
657
643
593
528
525
521
519
521
520
517
517
514
513
512
512
512
509
509
509
510
515
573
645
648
651
654
656
658
659
660
646
600
527
524
522
520
520
518
520
518
515
513
512
512
511
509
509
510
510
520
591
646
649
652
655
657
658
659
658
637
577
526
524
522
520
520
518
518
519
515
515
517
528
510
509
509
541
510
537
648
649
652
654
657
658
659
660
653
609
534
525
523
521
520
519
518
519
516
581
596
523
527
509
508
508
508
515
574
644
648
652
655
657
658
660
659
643
591
527
524
522
520
519
518
517
517
514
513
511
510
509
509
508
509
509
518
652
649
654
658
660
662
662
664
663
645
579
528
525
523
521
520
519
514
517
521
517
513
509
506
505
505
505
504
509
509
637
646
653
658
663
667
670
672
666
636
583
535
529
525
523
522
522
524
522
519
514
510
507
505
504
505
504
505
513
617
646
652
659
664
668
671
673
670
644
597
537
531
526
524
527
532
536
533
526
522
518
518
531
507
504
503
503
513
604
642
649
655
661
665
668
671
671
658
617
556
532
527
523
521
519
519
520
518
514
510
508
506
504
505
504
503
504
506
618
644
650
656
661
665
668
670
670
658
620
563
533
527
523
521
519
519
520
519
516
512
508
507
505
504
505
504
503
509
508
633
645
651
656
660
665
668
670
671
663
630
577
534
529
525
522
520
519
520
521
520
518
514
510
509
506
505
505
503
503
512
510
640
645
651
656
661
665
668
670
671
663
630
576
535
530
526
523
521
519
517
516
514
512
511
510
509
507
508
507
506
511
511
551
645
648
651
654
656
658
660
661
662
659
634
573
528
526
524
522
521
520
519
517
516
515
514
513
512
511
510
510
510
510
506
507
508
625
659
651
653
655
657
658
660
669
670
664
637
590
536
532
527
524
522
521
521
521
518
518
515
511
509
508
507
506
505
505
505
504
509
514
641
647
652
657
661
665
667
669
671
667
645
605
552
533
528
525
523
521
520
519
520
519
515
512
510
509
508
507
506
505
507
505
509
507
613
643
648
654
658
662
665
668
670
671
666
641
600
546
533
529
525
523
522
521
520
522
523
522
519
512
510
509
508
506
505
507
505
504
510
514
641
646
651
656
660
664
667
669
670
670
657
626
581
535
531
527
524
523
520
521
521
522
521
518
514
510
508
507
506
505
504
505
505
507
508
614
642
645
653
659
663
663
670
668
662
664
640
608
555
543
541
524
524
533
533
521
526
525
557
510
514
513
516
541
585
493
500
502
510
509
511
626
644
649
654
658
662
665
668
670
671
668
646
606
549
534
530
525
522
521
521
520
520
518
517
516
516
515
514
514
514
514
514
514
514
519
560
644
653
657
660
663
665
666
667
669
669
668
657
613
553
531
528
526
524
524
522
521
520
519
518
517
516
515
515
514
514
514
514
514
514
515
525
575
649
654
658
661
663
665
666
668
670
669
669
659
619
559
532
532
531
528
524
522
521
519
518
517
516
516
515
514
514
514
513
513
513
513
514
515
543
620
651
655
658
661
663
665
666
667
668
668
663
638
585
533
529
527
524
523
523
521
520
519
518
517
516
516
515
514
514
514
513
513
514
514
514
526
578
649
654
657
660
662
664
666
667
668
668
668
659
620
565
532
529
526
525
524
523
522
520
520
518
519
516
526
515
512
511
511
509
508
509
515
515
536
600
651
655
659
661
663
665
666
668
668
669
668
650
619
559
536
531
527
525
523
522
521
520
519
518
517
516
516
515
515
514
514
514
514
515
515
527
581
650
655
658
662
664
666
667
668
669
669
666
640
584
534
530
528
526
524
523
521
521
520
518
516
515
517
516
515
515
515
515
515
515
519
560
650
655
659
662
664
666
667
668
669
668
659
626
584
543
539
534
531
529
527
525
524
522
520
518
516
515
514
513
512
511
511
510
513
518
647
652
657
663
667
671
674
676
677
664
670
540
528
525
523
521
521
520
519
518
517
516
515
515
514
514
514
515
515
515
516
549
650
653
654
660
663
665
666
666
666
665
637
574
531
527
525
522
522
521
520
519
518
517
517
516
516
515
515
515
516
516
519
574
651
654
657
659
661
663
663
664
664
648
590
531
528
526
524
523
522
521
520
519
518
517
517
516
515
516
516
516
517
519
574
652
653
657
660
662
663
665
665
662
636
567
530
528
525
524
523
522
521
520
519
516
518
516
515
513
513
511
516
517
555
651
657
661
664
666
668
670
670
672
647
574
534
529
528
526
524
522
520
518
518
517
516
515
514
514
514
515
517
571
652
657
661
665
667
669
670
671
664
618
537
531
527
525
524
523
521
520
517
516
516
515
513
515
509
510
515
524
597
652
659
663
665
667
669
670
669
656
595
534
530
527
525
524
522
521
520
518
517
516
516
515
515
515
515
516
539
632
655
660
663
666
670
669
670
669
649
581
533
529
527
525
524
522
521
520
518
514
517
516
516
516
516
516
516
540
633
655
660
663
666
668
669
670
669
651
587
534
530
527
525
524
522
521
520
518
517
517
516
516
516
515
516
516
533
618
654
659
663
666
667
669
670
670
658
601
535
531
528
525
524
523
521
520
519
518
517
516
516
515
516
516
516
525
590
653
659
662
665
667
669
670
671
664
618
539
532
529
526
525
524
522
521
519
518
517
517
516
516
516
516
516
521
580
653
658
662
666
668
670
671
671
666
625
547
533
529
527
526
524
523
521
520
519
518
517
516
515
514
514
515
515
553
650
656
661
663
666
668
670
670
669
631
566
533
529
527
525
524
522
521
519
518
517
516
515
514
514
514
514
515
532
633
654
659
663
666
668
669
671
670
647
587
536
532
528
526
525
523
522
520
514
510
510
507
507
506
506
506
507
519
571
646
652
658
661
664
666
667
666
657
581
534
530
526
523
523
519
518
516
514
513
512
511
510
510
508
508
511
524
641
651
655
652
657
660
657
614
635
664
604
532
528
525
522
521
517
518
514
513
513
512
511
509
509
508
508
508
517
616
646
651
657
662
667
670
673
675
667
614
540
535
530
526
524
522
520
519
517
516
515
515
513
519
519
540
540
540
580
674
677
679
682
683
684
685
686
681
648
574
551
548
545
543
541
540
538
537
535
534
533
531
531
530
530
530
530
530
552
653
666
669
671
674
675
676
677
677
664
608
544
541
539
536
535
534
532
531
530
528
527
526
526
525
525
525
525
525
525
554
659
662
666
669
671
672
673
675
674
661
611
541
538
536
534
532
532
529
529
527
526
525
524
524
523
523
522
522
524
522
539
612
658
661
662
667
668
668
671
671
666
631
571
537
536
534
530
530
529
527
526
524
523
522
522
521
520
520
520
520
520
520
546
630
657
661
663
665
667
667
669
669
664
630
575
536
534
531
529
528
527
526
525
524
522
522
521
520
519
519
519
518
519
518
521
552
632
655
659
660
664
665
667
668
668
665
645
598
536
533
531
530
527
527
526
525
524
522
521
520
520
520
518
518
518
518
518
518
518
540
622
654
657
660
660
665
666
667
668
667
663
628
573
535
533
531
528
529
526
526
526
523
523
522
520
520
520
518
518
518
518
518
518
518
534
596
653
656
659
661
664
664
666
665
668
664
647
608
553
534
531
529
527
526
526
525
524
524
522
521
520
521
522
518
518
517
518
518
517
518
535
599
654
656
659
661
663
665
665
666
668
667
650
611
556
534
532
530
531
527
526
526
524
524
522
522
521
520
520
519
523
517
518
518
518
518
527
571
647
655
659
661
663
664
666
667
668
668
654
619
567
535
532
530
529
528
527
526
525
524
523
521
521
522
520
519
519
518
518
518
519
519
538
600
654
654
659
662
663
664
665
666
665
660
632
588
534
532
530
527
526
524
525
524
523
522
521
520
519
519
519
518
518
518
519
519
520
532
584
655
658
660
662
664
665
666
667
666
665
642
601
539
531
529
527
526
525
524
523
522
521
520
520
520
519
519
519
519
519
519
520
529
557
626
657
660
662
664
665
666
667
667
662
635
585
533
530
528
526
526
525
524
523
522
521
521
520
520
520
520
531
533
534
535
536
538
540
543
545
547
549
549
550
550
550
550
549
548
546
545
543
542
541
540
540
539
539
538
524
523
523
523
522
523
524
523
524
525
532
540
546
550
553
554
554
554
554
553
553
552
552
539
536
533
531
530
529
528
527
525
525
524
523
523
522
522
522
522
523
523
531
588
658
661
663
665
666
668
669
669
669
661
584
549
544
541
538
526
529
527
526
525
524
523
523
523
522
521
520
520
520
520
524
579
655
658
661
664
666
667
668
669
670
652
598
537
534
532
530
529
528
526
526
525
523
522
521
520
520
519
519
519
519
520
526
587
655
658
661
663
666
667
668
669
669
647
586
536
533
531
529
528
527
526
525
523
522
522
521
520
519
519
519
519
519
520
537
623
656
660
663
665
667
668
669
669
665
633
561
535
532
530
528
527
525
525
523
522
521
521
520
520
519
520
520
521
521
524
573
656
659
662
664
666
667
668
669
669
652
598
535
532
530
528
527
527
526
525
524
522
522
522
521
520
520
520
520
521
521
541
634
657
660
663
665
666
668
671
671
666
631
566
537
535
533
530
529
528
527
526
526
524
522
521
521
520
520
520
520
520
524
564
654
659
660
664
666
668
669
670
669
650
602
538
535
533
531
529
528
526
526
523
523
522
521
521
520
520
519
519
520
520
539
608
657
658
661
665
667
668
669
669
662
623
565
536
533
531
529
529
527
526
525
523
523
522
521
520
520
520
520
520
520
530
