541
539
537
538
537
535
533
532
531
530
530
531
531
533
535
539
544
549
554
558
561
564
565
566
566
565
595
580
566
563
592
630
658
655
653
651
650
648
645
616
562
516
516
517
519
524
540
631
668
671
673
673
675
675
667
630
568
539
536
533
531
534
545
561
583
596
599
598
595
588
572
550
522
520
521
524
559
638
659
662
664
665
665
666
666
665
639
580
534
532
529
527
527
526
527
548
567
579
582
581
533
523
522
522
523
523
522
525
564
643
659
662
663
667
668
667
669
670
659
619
555
538
535
532
530
531
536
549
566
582
590
591
589
584
575
557
536
521
521
521
525
566
647
658
661
664
665
667
668
669
669
649
604
538
535
533
530
528
529
535
547
565
579
584
582
553
573
568
552
531
520
520
520
526
575
654
657
660
662
664
666
667
668
667
645
596
537
534
532
530
528
529
537
551
570
581
585
585
582
575
565
547
525
519
519
519
530
597
654
657
660
662
663
664
666
667
661
628
567
535
533
530
529
528
531
542
557
578
588
589
586
582
573
550
520
519
520
520
522
539
604
641
657
664
666
668
670
671
670
663
630
573
536
532
529
526
523
520
520
545
555
554
547
537
527
519
519
519
519
520
521
527
578
656
659
662
664
666
667
668
668
668
650
599
536
533
531
529
528
527
527
531
542
544
542
541
543
544
527
522
526
525
523
524
554
632
659
662
665
667
668
670
670
672
656
611
554
532
529
527
523
526
533
524
527
530
528
515
501
506
494
498
501
504
507
517
526
532
541
547
550
565
569
668
670
671
667
624
538
536
532
532
535
532
530
528
526
524
524
523
522
522
521
521
521
522
522
526
578
659
664
668
671
674
677
679
680
681
675
629
547
544
541
539
537
534
530
529
528
528
526
524
519
518
517
514
515
518
519
524
583
662
666
669
674
677
680
683
685
685
678
634
551
544
540
536
534
531
529
527
523
521
519
517
515
514
514
514
515
516
517
523
605
659
665
670
675
679
682
684
686
685
668
614
547
542
538
534
532
530
527
526
522
520
518
517
516
516
516
516
517
518
521
560
658
663
668
673
676
679
681
683
683
681
640
565
545
541
537
534
531
528
527
523
521
519
518
517
517
516
515
518
518
519
530
625
660
665
670
675
680
684
683
683
681
657
591
546
542
542
537
533
531
528
526
516
516
517
516
517
515
517
516
505
496
507
588
645
652
659
665
670
675
679
679
680
664
606
548
544
540
536
535
532
530
535
530
519
517
516
514
513
513
514
515
516
518
540
643
661
667
672
677
681
684
687
689
687
658
599
552
548
543
539
554
577
581
551
544
530
530
532
510
493
468
488
494
494
498
507
523
647
659
671
685
695
702
708
711
699
648
577
569
560
547
543
540
542
542
538
503
491
459
326
416
505
486
464
518
542
548
644
678
688
611
572
572
568
542
452
551
531
533
554
550
549
549
554
559
562
566
568
569
569
569
554
555
554
557
556
546
538
517
596
619
653
658
664
672
683
683
683
683
659
679
654
610
545
536
528
522
516
512
509
506
504
503
501
500
501
501
502
501
507
529
620
647
633
645
659
668
573
570
587
618
673
693
694
687
676
664
655
630
541
559
517
513
510
507
505
503
501
504
507
512
540
566
601
627
650
665
669
675
679
670
685
686
685
683
677
663
623
552
542
530
524
516
516
512
504
502
501
500
502
503
514
533
560
604
629
658
674
680
684
692
694
695
695
697
610
563
561
532
524
516
508
500
499
504
505
505
506
506
506
512
539
522
645
667
683
696
698
694
687
678
677
673
674
663
616
532
536
529
528
529
528
529
529
535
521
524
460
430
377
434
538
584
654
660
669
573
595
652
664
602
479
589
624
608
523
504
519
526
535
544
551
560
567
576
579
581
549
554
555
557
661
686
686
683
679
672
661
671
646
646
643
636
612
544
506
527
529
512
516
525
533
572
575
577
581
582
582
583
606
652
702
699
693
683
675
666
656
648
641
632
632
611
524
501
505
510
518
527
537
547
553
559
569
575
576
573
573
590
628
683
689
685
677
667
658
650
643
637
632
627
617
553
496
498
503
510
518
526
535
542
549
555
559
563
564
565
576
616
672
686
681
674
665
656
647
640
633
628
624
617
555
492
495
499
507
514
523
533
541
545
551
554
556
556
556
561
592
639
679
679
672
661
652
643
633
634
629
622
608
533
489
493
499
508
518
528
538
547
554
561
565
569
570
570
587
634
689
685
678
669
657
646
636
627
621
619
617
606
532
487
491
492
503
519
531
537
545
551
556
560
563
565
566
585
632
686
682
676
666
656
646
636
628
621
617
614
590
503
485
489
496
505
515
524
536
540
545
555
561
564
565
566
589
638
685
681
675
666
656
646
637
631
625
621
618
592
504
489
492
499
506
515
523
532
540
547
552
556
559
560
561
580
625
682
679
673
665
655
646
635
626
621
619
617
597
516
488
491
497
507
516
523
532
539
545
550
555
557
559
563
582
627
684
681
675
667
660
655
651
656
643
526
526
519
519
519
519
522
531
534
537
550
551
554
558
559
561
563
562
561
558
553
547
522
533
518
484
268
386
427
454
491
529
521
538
546
538
548
554
518
539
546
564
568
566
559
570
476
449
497
522
527
524
526
538
536
536
536
543
553
555
557
557
556
556
548
550
554
552
547
545
545
549
555
557
554
548
538
530
528
527
532
538
541
542
544
546
549
553
556
558
561
562
564
564
563
565
565
564
564
563
563
563
563
563
563
562
562
561
560
559
559
559
558
558
558
557
557
557
557
557
557
557
556
556
555
555
555
554
554
554
554
554
554
553
553
553
553
552
552
551
551
551
551
551
551
550
550
549
549
549
548
547
547
546
546
546
546
547
547
547
547
548
547
547
546
546
547
548
549
550
551
553
554
556
557
559
561
562
563
564
564
566
566
567
567
569
569
569
570
572
572
572
571
572
573
570
573
577
585
591
595
598
600
602
602
603
605
609
613
616
616
616
616
617
617
618
620
623
624
625
624
624
626
628
630
632
635
637
636
635
635
636
639
642
642
641
640
638
636
635
635
636
635
633
631
630
629
628
628
626
626
624
624
623
625
621
622
620
623
627
631
635
635
630
632
620
623
620
627
636
644
656
669
677
680
680
676
673
670
668
667
670
671
668
647
668
658
644
639
636
633
633
633
639
643
640
633
644
651
660
658
659
663
664
661
659
660
660
658
657
656
654
652
648
644
640
636
633
630
630
634
629
616
617
617
622
622
621
622
623
623
636
631
633
635
631
635
638
641
627
630
652
649
642
644
636
632
628
629
624
616
626
630
630
630
628
625
631
632
632
634
637
630
627
625
623
626
625
630
632
634
637
638
647
652
654
654
654
652
650
648
646
639
637
638
637
636
634
632
630
630
630
631
630
629
629
629
630
631
625
619
620
624
625
628
625
620
624
627
631
632
632
630
629
628
629
631
631
631
631
630
630
631
633
634
636
636
636
636
635
635
633
631
629
627
626
624
624
623
623
623
622
622
620
620
620
619
619
620
621
620
621
621
625
626
626
623
620
620
622
624
626
627
628
628
628
627
627
627
625
624
624
623
622
622
621
623
620
616
613
610
615
617
620
625
629
632
636
615
618
622
625
627
622
622
603
646
672
644
649
639
685
641
681
629
618
622
596
591
586
585
585
584
580
577
579
582
584
586
586
587
585
584
584
587
589
591
593
593
593
587
574
569
568
564
568
562
555
541
558
576
586
597
604
606
586
588
600
608
614
619
625
628
624
615
619
623
642
632
688
612
610
610
625
626
633
634
640
643
633
636
644
655
661
660
657
662
695
703
707
700
690
660
651
646
640
638
635
631
625
619
611
606
604
601
600
600
603
606
608
611
616
622
628
633
636
639
642
646
650
652
655
664
666
666
663
659
655
655
659
664
662
656
650
615
587
578
604
592
595
595
595
583
606
616
620
614
611
622
624
625
631
602
602
599
598
597
597
597
599
601
617
619
613
610
602
616
621
599
613
630
618
621
618
605
606
604
599
589
594
593
592
595
600
603
605
607
610
613
617
621
628
645
642
639
611
629
646
651
648
642
643
633
629
632
617
610
599
604
631
625
621
618
595
593
592
590
592
590
588
595
594
592
593
593
593
594
595
596
597
597
596
599
601
594
629
586
578
586
586
589
590
566
576
600
612
617
617
612
611
610
609
609
608
606
606
607
607
609
611
610
611
611
613
614
616
619
620
620
626
628
625
608
622
622
620
613
646
632
619
619
615
609
606
603
604
609
601
600
597
591
589
590
589
586
589
589
590
592
590
591
593
600
609
618
626
630
635
640
646
652
658
664
671
673
671
666
660
656
651
646
638
630
620
611
603
597
591
584
577
576
576
576
578
578
580
580
582
584
588
594
602
609
617
623
627
632
639
644
650
655
661
662
660
659
655
641
633
626
619
612
606
600
594
592
589
585
583
583
582
582
583
585
589
591
594
597
601
606
610
615
617
619
620
622
624
625
627
631
631
628
623
618
613
610
614
614
605
598
590
588
586
584
583
582
578
585
576
574
580
587
594
595
596
597
605
603
597
601
601
607
615
626
636
644
704
702
698
700
696
688
677
662
648
633
620
608
598
588
577
567
567
568
569
570
570
571
585
588
593
596
600
606
618
626
627
608
611
610
614
617
614
608
603
601
598
595
591
587
582
579
577
575
573
569
566
565
565
566
568
570
573
574
578
582
585
589
591
594
595
597
599
601
603
607
607
604
600
597
595
591
587
583
579
574
570
570
573
562
559
559
560
564
567
570
572
573
573
577
581
585
588
588
589
591
592
595
597
598
595
592
588
586
584
580
577
574
572
571
570
568
565
563
560
560
561
563
565
566
566
568
574
579
583
580
583
584
583
584
584
584
571
572
573
574
572
572
571
570
570
577
576
565
565
568
570
565
567
568
570
569
570
574
578
583
588
591
597
600
597
597
603
601
597
594
596
595
592
588
583
577
576
571
558
553
553
554
555
558
559
565
572
579
593
607
619
633
644
659
672
688
683
682
678
674
667
661
650
632
612
594
578
566
554
554
555
556
558
558
560
561
562
568
580
596
613
627
638
650
665
678
682
680
678
674
670
661
620
609
597
588
580
570
557
550
551
548
548
538
538
531
534
549
559
579
606
630
652
676
686
687
688
686
688
687
687
686
681
669
649
622
594
570
564
565
565
566
566
567
569
570
571
576
588
613
643
675
694
694
693
692
691
690
689
688
687
687
684
671
650
623
598
576
562
563
564
565
566
568
568
570
570
573
583
597
613
629
642
653
667
691
691
693
691
689
686
683
674
660
646
631
618
607
601
595
584
559
559
561
562
564
565
574
592
616
645
677
689
690
691
691
691
690
689
688
687
685
675
657
632
606
582
563
563
564
564
565
566
567
568
570
575
589
609
633
657
677
693
694
694
693
691
690
688
687
684
679
667
650
631
613
597
580
565
565
566
568
568
569
571
574
586
606
630
655
679
692
692
691
690
689
688
686
685
682
676
659
637
611
588
566
557
556
556
555
556
557
558
559
561
572
588
604
620
636
651
667
684
684
684
683
682
680
679
671
657
632
603
576
558
559
559
560
558
559
562
564
567
579
599
624
647
668
683
681
680
678
676
675
674
672
669
661
647
633
617
605
593
578
560
550
551
551
552
555
561
576
598
624
650
670
674
674
674
675
675
674
673
671
666
651
628
602
577
554
548
549
550
552
553
554
555
557
562
573
588
607
633
663
679
678
677
676
673
670
668
667
661
652
631
604
579
556
544
545
546
547
548
549
551
553
555
566
585
604
621
629
640
654
668
671
670
670
669
667
665
662
654
640
618
589
565
545
545
545
546
547
547
549
550
553
559
574
594
615
633
642
629
630
627
625
618
610
600
601
583
573
586
599
584
572
575
586
566
568
568
569
570
571
571
572
573
573
573
572
572
572
571
571
571
570
571
570
570
570
570
570
570
570
570
570
570
570
570
570
570
566
562
560
558
556
555
554
553
553
553
553
553
553
553
554
554
